Freq	Mag Phase
1.00000000000000e+002	6.80892238746189e+001  -1.40035635950638e+002
1.01664043939194e+002	6.81784476919516e+001  -1.40742917052504e+002
1.03355778300703e+002	6.82663001728082e+001  -1.41456987576051e+002
1.05075663865322e+002	6.83527571240400e+001  -1.42177796496559e+002
1.06824169081440e+002	6.84377944083413e+001  -1.42905288577901e+002
1.08601770192634e+002	6.85213879665505e+001  -1.43639404346132e+002
1.10408951367381e+002	6.86035138402817e+001  -1.44380080069191e+002
1.12246204830937e+002	6.86841481948400e+001  -1.45127247742872e+002
1.14114030999401e+002	6.87632673423676e+001  -1.45880835083189e+002
1.16012938616016e+002	6.88408477651703e+001  -1.46640765525252e+002
1.17943444889736e+002	6.89168661391680e+001  -1.47406958228744e+002
1.19906075636100e+002	6.89912993574168e+001  -1.48179328090051e+002
1.21901365420448e+002	6.90641245536456e+001  -1.48957785761091e+002
1.23929857703521e+002	6.91353191257521e+001  -1.49742237674853e+002
1.25992104989487e+002	6.92048607592021e+001  -1.50532586077620e+002
1.28088668976427e+002	6.92727274502767e+001  -1.51328729067848e+002
1.30220120709323e+002	6.93388975291124e+001  -1.52130560641630e+002
1.32387040735597e+002	6.94033496824815e+001  -1.52937970744643e+002
1.34590019263236e+002	6.94660629762578e+001  -1.53750845330483e+002
1.36829656321545e+002	6.95270168775209e+001  -1.54569066425218e+002
1.39106561924583e+002	6.95861912762468e+001  -1.55392512198031e+002
1.41421356237309e+002	6.96435665065410e+001  -1.56221057037732e+002
1.43774669744502e+002	6.96991233673697e+001  -1.57054571634970e+002
1.46167143422481e+002	6.97528431427479e+001  -1.57892923069901e+002
1.48599428913695e+002	6.98047076213478e+001  -1.58735974905088e+002
1.51072188704209e+002	6.98546991154921e+001  -1.59583587283379e+002
1.53586096304149e+002	6.99028004795018e+001  -1.60435617030504e+002
1.56141836431142e+002	6.99489951273706e+001  -1.61291917762122e+002
1.58740105196820e+002	6.99932670497419e+001  -1.62152339995044e+002
1.61381610296417e+002	7.00356008301687e+001  -1.63016731262353e+002
1.64067071201528e+002	7.00759816606379e+001  -1.63884936232135e+002
1.66797219356069e+002	7.01143953563481e+001  -1.64756796829547e+002
1.69572798375507e+002	7.01508283697282e+001  -1.65632152361955e+002
1.72394564249395e+002	7.01852678036919e+001  -1.66510839646845e+002
1.75263285547287e+002	7.02177014241235e+001  -1.67392693142280e+002
1.78179743628068e+002	7.02481176715948e+001  -1.68277545079614e+002
1.81144732852781e+002	7.02765056723130e+001  -1.69165225598250e+002
1.84159060800986e+002	7.03028552483058e+001  -1.70055562882198e+002
1.87223548490721e+002	7.03271569268477e+001  -1.70948383298219e+002
1.90339030602124e+002	7.03494019491357e+001  -1.71843511535354e+002
1.93506355704778e+002	7.03695822782229e+001  -1.72740770745664e+002
1.96726386488838e+002	7.03876906062206e+001  -1.73639982685989e+002
2.00000000000000e+002	7.04037203607774e+001  -1.74540967860601e+002
2.03328087878387e+002	7.04176657108479e+001  -1.75443545664582e+002
2.06711556601405e+002	7.04295215717604e+001  -1.76347534527835e+002
2.10151327730644e+002	7.04392836095938e+001  -1.77252752059595e+002
2.13648338162880e+002	7.04469482448735e+001  -1.78159015193356e+002
2.17203540385267e+002	7.04525126555951e+001  -1.79066140332129e+002
2.20817902734762e+002	7.04559747795824e+001  -1.79973943493956e+002
2.24492409661874e+002	7.04573333161869e+001  1.79117759542383e+002
2.28228061998802e+002	7.04565877273317e+001  1.78209153091535e+002
2.32025877232032e+002	7.04537382379052e+001  1.77300421415652e+002
2.35886889779473e+002	7.04487858355021e+001  1.76391748578448e+002
2.39812151272200e+002	7.04417322695152e+001  1.75483318299276e+002
2.43802730840895e+002	7.04325800495715e+001  1.74575313807276e+002
2.47859715407041e+002	7.04213324433125e+001  1.73667917695666e+002
2.51984209978974e+002	7.04079934735094e+001  1.72761311776217e+002
2.56177337952854e+002	7.03925679145090e+001  1.71855676934001e+002
2.60440241418646e+002	7.03750612880009e+001  1.70951192982480e+002
2.64774081471194e+002	7.03554798580957e+001  1.70048038519034e+002
2.69180038526471e+002	7.03338306257064e+001  1.69146390781033e+002
2.73659312643089e+002	7.03101213222202e+001  1.68246425502564e+002
2.78213123849165e+002	7.02843604024517e+001  1.67348316771956e+002
2.82842712474619e+002	7.02565570368658e+001  1.66452236890241e+002
2.87549339489003e+002	7.02267211030609e+001  1.65558356230725e+002
2.92334286844961e+002	7.01948631765030e+001  1.64666843099841e+002
2.97198857827389e+002	7.01609945205030e+001  1.63777863599486e+002
3.02144377408418e+002	7.01251270754299e+001  1.62891581491047e+002
3.07172192608297e+002	7.00872734471562e+001  1.62008158061347e+002
3.12283672862284e+002	7.00474468947327e+001  1.61127751990740e+002
3.17480210393639e+002	7.00056613172926e+001  1.60250519223617e+002
3.22763220592834e+002	6.99619312401875e+001  1.59376612841569e+002
3.28134142403055e+002	6.99162718003619e+001  1.58506182939484e+002
3.33594438712137e+002	6.98686987309737e+001  1.57639376504855e+002
3.39145596751013e+002	6.98192283452742e+001  1.56776337300564e+002
3.44789128498790e+002	6.97678775197619e+001  1.55917205751433e+002
3.50526571094573e+002	6.97146636766308e+001  1.55062118834823e+002
3.56359487256135e+002	6.96596047655347e+001  1.54211209975549e+002
3.62289465705562e+002	6.96027192446941e+001  1.53364608945388e+002
3.68318121601972e+002	6.95440260613761e+001  1.52522441767439e+002
3.74447096981441e+002	6.94835446317795e+001  1.51684830625596e+002
3.80678061204247e+002	6.94212948203628e+001  1.50851893779365e+002
3.87012711409556e+002	6.93572969186532e+001  1.50023745484250e+002
3.93452772977675e+002	6.92915716235814e+001  1.49200495917932e+002
3.99999999999999e+002	6.92241400153853e+001  1.48382251112409e+002
4.06656175756773e+002	6.91550235351313e+001  1.47569112892281e+002
4.13423113202810e+002	6.90842439619033e+001  1.46761178819327e+002
4.20302655461287e+002	6.90118233897103e+001  1.45958542143489e+002
4.27296676325760e+002	6.89377842041668e+001  1.45161291760373e+002
4.34407080770534e+002	6.88621490589990e+001  1.44369512175333e+002
4.41635805469524e+002	6.87849408524331e+001  1.43583283474203e+002
4.48984819323748e+002	6.87061827035207e+001  1.42802681300674e+002
4.56456123997604e+002	6.86258979284574e+001  1.42027776840340e+002
4.64051754464064e+002	6.85441100169498e+001  1.41258636811371e+002
4.71773779558945e+002	6.84608426086854e+001  1.40495323461755e+002
4.79624302544400e+002	6.83761194699610e+001  1.39737894573043e+002
4.87605461681789e+002	6.82899644705204e+001  1.38986403470477e+002
4.95719430814082e+002	6.82024015606537e+001  1.38240899039396e+002
5.03968419957948e+002	6.81134547486086e+001  1.37501425747746e+002
5.12354675905708e+002	6.80231480783589e+001  1.36768023674542e+002
5.20880482837291e+002	6.79315056077780e+001  1.36040728544094e+002
5.29548162942387e+002	6.78385513872585e+001  1.35319571765776e+002
5.38360077052941e+002	6.77443094388184e+001  1.34604580479132e+002
5.47318625286178e+002	6.76488037357318e+001  1.33895777604064e+002
5.56426247698330e+002	6.75520581827182e+001  1.33193181895871e+002
5.65685424949236e+002	6.74540965967213e+001  1.32496808004862e+002
5.75098678978006e+002	6.73549426883072e+001  1.31806666540281e+002
5.84668573689921e+002	6.72546200437053e+001  1.31122764138257e+002
5.94397715654778e+002	6.71531521075156e+001  1.30445103533510e+002
6.04288754816836e+002	6.70505621661006e+001  1.29773683634509e+002
6.14344385216594e+002	6.69468733316782e+001  1.29108499601796e+002
6.24567345724566e+002	6.68421085271275e+001  1.28449542929191e+002
6.34960420787278e+002	6.67362904715184e+001  1.27796801527579e+002
6.45526441185667e+002	6.66294416663712e+001  1.27150259810992e+002
6.56268284806108e+002	6.65215843826505e+001  1.26509898784705e+002
6.67188877424274e+002	6.64127406484948e+001  1.25875696135053e+002
6.78291193502026e+002	6.63029322376801e+001  1.25247626320709e+002
6.89578256997580e+002	6.61921806588148e+001  1.24625660665141e+002
7.01053142189145e+002	6.60805071452585e+001  1.24009767449998e+002
7.12718974512269e+002	6.59679326457583e+001  1.23399912009162e+002
7.24578931411123e+002	6.58544778157901e+001  1.22796056823228e+002
7.36636243203943e+002	6.57401630095952e+001  1.22198161614186e+002
7.48894193962882e+002	6.56250082728967e+001  1.21606183440063e+002
7.61356122408493e+002	6.55090333362810e+001  1.21020076789335e+002
7.74025422819111e+002	6.53922576092273e+001  1.20439793674892e+002
7.86905545955350e+002	6.52747001747685e+001  1.19865283727373e+002
7.99999999999998e+002	6.51563797847613e+001  1.19296494287694e+002
8.13312351513546e+002	6.50373148557493e+001  1.18733370498600e+002
8.26846226405620e+002	6.49175234653948e+001  1.18175855395083e+002
8.40605310922573e+002	6.47970233494603e+001  1.17623889993538e+002
8.54593352651519e+002	6.46758318993156e+001  1.17077413379505e+002
8.68814161541068e+002	6.45539661599496e+001  1.16536362793887e+002
8.83271610939047e+002	6.44314428284627e+001  1.16000673717545e+002
8.97969638647495e+002	6.43082782530175e+001  1.15470279954150e+002
9.12912247995207e+002	6.41844884322243e+001  1.14945113711222e+002
9.28103508928127e+002	6.40600890149385e+001  1.14425105679272e+002
9.43547559117888e+002	6.39350953004468e+001  1.13910185108982e+002
9.59248605088798e+002	6.38095222390188e+001  1.13400279886360e+002
9.75210923363577e+002	6.36833844328023e+001  1.12895316605828e+002
9.91438861628162e+002	6.35566961370390e+001  1.12395220641198e+002
1.00793683991590e+003	6.34294712615798e+001  1.11899916214503e+002
1.02470935181141e+003	6.33017233726765e+001  1.11409326462673e+002
1.04176096567458e+003	6.31734656950304e+001  1.10923373502008e+002
1.05909632588477e+003	6.30447111140765e+001  1.10441978490480e+002
1.07672015410588e+003	6.29154721784834e+001  1.09965061687823e+002
1.09463725057236e+003	6.27857611028493e+001  1.09492542513436e+002
1.11285249539666e+003	6.26555897705755e+001  1.09024339602104e+002
1.13137084989847e+003	6.25249697368993e+001  1.08560370857543e+002
1.15019735795601e+003	6.23939122320680e+001  1.08100553503795e+002
1.16933714737984e+003	6.22624281646383e+001  1.07644804134499e+002
1.18879543130955e+003	6.21305281248833e+001  1.07193038760049e+002
1.20857750963367e+003	6.19982223882930e+001  1.06745172852696e+002
1.22868877043319e+003	6.18655209191518e+001  1.06301121389605e+002
1.24913469144913e+003	6.17324333741804e+001  1.05860798893913e+002
1.26992084157455e+003	6.15989691062267e+001  1.05424119473834e+002
1.29105288237133e+003	6.14651371679941e+001  1.04990996859848e+002
1.31253656961222e+003	6.13309463157938e+001  1.04561344440014e+002
1.33437775484855e+003	6.11964050133097e+001  1.04135075293468e+002
1.35658238700405e+003	6.10615214353657e+001  1.03712102222140e+002
1.37915651399516e+003	6.09263034716825e+001  1.03292337780751e+002
1.40210628437829e+003	6.07907587306165e+001  1.02875694305130e+002
1.42543794902454e+003	6.06548945428702e+001  1.02462083938919e+002
1.44915786282224e+003	6.05187179651644e+001  1.02051418658702e+002
1.47327248640789e+003	6.03822357838659e+001  1.01643610297627e+002
1.49778838792576e+003	6.02454545185610e+001  1.01238570567562e+002
1.52271224481698e+003	6.01083804255688e+001  1.00836211079855e+002
1.54805084563822e+003	5.99710195013859e+001  1.00436443364732e+002
1.57381109191070e+003	5.98333774860588e+001  1.00039178889418e+002
1.59999999999999e+003	5.96954598664743e+001  9.96443290750016e+001
1.62662470302709e+003	5.95572718795660e+001  9.92518053121314e+001
1.65369245281124e+003	5.94188185154297e+001  9.88615189755743e+001
1.68121062184514e+003	5.92801045203431e+001  9.84733814377057e+001
1.70918670530304e+003	5.91411343996861e+001  9.80873040809804e+001
1.73762832308213e+003	5.90019124207580e+001  9.77031983094409e+001
1.76654322187809e+003	5.88624426154857e+001  9.73209755593152e+001
1.79593927729499e+003	5.87227287830231e+001  9.69405473087610e+001
1.82582449599041e+003	5.85827744922354e+001  9.65618250868068e+001
1.85620701785625e+003	5.84425830840671e+001  9.61847204815457e+001
1.88709511823577e+003	5.83021576737918e+001  9.58091451476329e+001
1.91849721017759e+003	5.81615011531397e+001  9.54350108131395e+001
1.95042184672715e+003	5.80206161923029e+001  9.50622292858159e+001
1.98287772325632e+003	5.78795052418154e+001  9.46907124588142e+001
2.01587367983179e+003	5.77381705343072e+001  9.43203723159220e+001
2.04941870362283e+003	5.75966140861307e+001  9.39511209363588e+001
2.08352193134916e+003	5.74548376988590e+001  9.35828704991837e+001
2.11819265176955e+003	5.73128429606547e+001  9.32155332873659e+001
2.15344030821176e+003	5.71706312475091e+001  9.28490216915671e+001
2.18927450114471e+003	5.70282037243511e+001  9.24832482136847e+001
2.22570499079332e+003	5.68855613460264e+001  9.21181254702064e+001
2.26274169979694e+003	5.67427048581455e+001  9.17535661954225e+001
2.30039471591202e+003	5.65996347978026e+001  9.13894832445471e+001
2.33867429475968e+003	5.64563514941642e+001  9.10257895967945e+001
2.37759086261911e+003	5.63128550689294e+001  9.06623983584608e+001
2.41715501926734e+003	5.61691454366616e+001  9.02992227660568e+001
2.45737754086637e+003	5.60252223049927e+001  8.99361761895414e+001
2.49826938289826e+003	5.58810851747026e+001  8.95731721357035e+001
2.53984168314911e+003	5.57367333396724e+001  8.92101242517389e+001
2.58210576474266e+003	5.55921658867160e+001  8.88469463290707e+001
2.62507313922443e+003	5.54473816952899e+001  8.84835523074613e+001
2.66875550969709e+003	5.53023794370840e+001  8.81198562794617e+001
2.71316477400810e+003	5.51571575754952e+001  8.77557724952488e+001
2.75831302799031e+003	5.50117143649870e+001  8.73912153678947e+001
2.80421256875657e+003	5.48660478503368e+001  8.70260994791186e+001
2.85087589804907e+003	5.47201558657749e+001  8.66603395855672e+001
2.89831572564449e+003	5.45740360340169e+001  8.62938506256723e+001
2.94654497281577e+003	5.44276857651953e+001  8.59265477271320e+001
2.99557677585152e+003	5.42811022556912e+001  8.55583462150641e+001
3.04542448963397e+003	5.41342824868723e+001  8.51891616208794e+001
3.09610169127644e+003	5.39872232237402e+001  8.48189096919214e+001
3.14762218382139e+003	5.38399210134927e+001  8.44475064019206e+001
3.19999999999998e+003	5.36923721840053e+001  8.40748679623111e+001
3.25324940605417e+003	5.35445728422362e+001  8.37009108344548e+001
3.30738490562247e+003	5.33965188725637e+001  8.33255517428221e+001
3.36242124369028e+003	5.32482059350575e+001  8.29487076891744e+001
3.41837341060607e+003	5.30996294636943e+001  8.25702959677946e+001
3.47525664616426e+003	5.29507846645221e+001  8.21902341818114e+001
3.53308644375618e+003	5.28016665137807e+001  8.18084402606627e+001
3.59187855458997e+003	5.26522697559870e+001  8.14248324787413e+001
3.65164899198082e+003	5.25025889019922e+001  8.10393294752672e+001
3.71241403571250e+003	5.23526182270194e+001  8.06518502754292e+001
3.77419023647154e+003	5.22023517686917e+001  8.02623143128365e+001
3.83699442035518e+003	5.20517833250582e+001  7.98706414533195e+001
3.90084369345430e+003	5.19009064526303e+001  7.94767520201207e+001
3.96575544651264e+003	5.17497144644370e+001  7.90805668205106e+001
4.03174735966357e+003	5.15982004281107e+001  7.86820071738630e+001
4.09883740724565e+003	5.14463571640151e+001  7.82809949412255e+001
4.16704386269832e+003	5.12941772434278e+001  7.78774525564122e+001
4.23638530353908e+003	5.11416529867888e+001  7.74713030586486e+001
4.30688061642351e+003	5.09887764620299e+001  7.70624701267929e+001
4.37854900228941e+003	5.08355394829973e+001  7.66508781151561e+001
4.45140998158662e+003	5.06819336079820e+001  7.62364520909378e+001
4.52548339959387e+003	5.05279501383738e+001  7.58191178732939e+001
4.60078943182403e+003	5.03735801174527e+001  7.53988020740450e+001
4.67734858951935e+003	5.02188143293350e+001  7.49754321400327e+001
4.75518172523820e+003	5.00636432980903e+001  7.45489363971232e+001
4.83431003853467e+003	4.99080572870456e+001  7.41192440958557e+001
4.91475508173273e+003	4.97520462982945e+001  7.36862854587240e+001
4.99653876579651e+003	4.95956000724305e+001  7.32499917290763e+001
5.07968336629820e+003	4.94387080885204e+001  7.28102952216109e+001
5.16421152948531e+003	4.92813595643389e+001  7.23671293744382e+001
5.25014627844884e+003	4.91235434568826e+001  7.19204288026723e+001
5.33751101939417e+003	4.89652484631820e+001  7.14701293535093e+001
5.42632954801619e+003	4.88064630214334e+001  7.10161681627379e+001
5.51662605598062e+003	4.86471753124685e+001  7.05584837126242e+001
5.60842513751313e+003	4.84873732615824e+001  7.00970158910982e+001
5.70175179609813e+003	4.83270445407413e+001  6.96317060521662e+001
5.79663145128896e+003	4.81661765711881e+001  6.91624970774570e+001
5.89308994563152e+003	4.80047565264671e+001  6.86893334388062e+001
5.99115355170303e+003	4.78427713358873e+001  6.82121612617676e+001
6.09084897926792e+003	4.76802076884441e+001  6.77309283899335e+001
6.19220338255286e+003	4.75170520372174e+001  6.72455844499312e+001
6.29524436764277e+003	4.73532906042657e+001  6.67560809169564e+001
6.39999999999995e+003	4.71889093860342e+001  6.62623711806885e+001
6.50649881210834e+003	4.70238941592923e+001  6.57644106114229e+001
6.61476981124493e+003	4.68582304876187e+001  6.52621566262469e+001
6.72484248738055e+003	4.66919037284476e+001  6.47555687550677e+001
6.83674682121212e+003	4.65248990406905e+001  6.42446087062957e+001
6.95051329232851e+003	4.63572013929457e+001  6.37292404319727e+001
7.06617288751234e+003	4.61887955723064e+001  6.32094301921222e+001
7.18375710917993e+003	4.60196661937764e+001  6.26851466180896e+001
7.30329798396162e+003	4.58497977103013e+001  6.21563607746314e+001
7.42482807142498e+003	4.56791744234184e+001  6.16230462204976e+001
7.54838047294307e+003	4.55077804945308e+001  6.10851790672495e+001
7.67398884071035e+003	4.53355999568040e+001  6.05427380360386e+001
7.80168738690858e+003	4.51626167276843e+001  5.99957045120726e+001
7.93151089302526e+003	4.49888146220330e+001  5.94440625964806e+001
8.06349471932712e+003	4.48141773658704e+001  5.88877991552905e+001
8.19767481449128e+003	4.46386886107165e+001  5.83269038652219e+001
8.33408772539661e+003	4.44623319485164e+001  5.77613692559976e+001
8.47277060707815e+003	4.42850909271329e+001  5.71911907488766e+001
8.61376123284701e+003	4.41069490663844e+001  5.66163666911060e+001
8.75709800457880e+003	4.39278898746053e+001  5.60368983859977e+001
8.90281996317323e+003	4.37478968657008e+001  5.54527901183343e+001
9.05096679918773e+003	4.35669535766643e+001  5.48640491748152e+001
9.20157886364803e+003	4.33850435855228e+001  5.42706858592630e+001
9.35469717903868e+003	4.32021505296711e+001  5.36727135023161e+001
9.51036345047639e+003	4.30182581245530e+001  5.30701484653484e+001
9.66862007706932e+003	4.28333501826431e+001  5.24630101383678e+001
9.82951016346544e+003	4.26474106326789e+001  5.18513209316623e+001
9.99307753159300e+003	4.24604235390914e+001  5.12351062609795e+001
1.01593667325964e+004	4.22723731215774e+001  5.06143945260470e+001
1.03284230589706e+004	4.20832437747523e+001  4.99892170822614e+001
1.05002925568977e+004	4.18930200878244e+001  4.93596082053992e+001
1.06750220387883e+004	4.17016868642209e+001  4.87256050492287e+001
1.08526590960324e+004	4.15092291411028e+001  4.80872475959317e+001
1.10332521119612e+004	4.13156322086938e+001  4.74445785992714e+001
1.12168502750262e+004	4.11208816293564e+001  4.67976435204776e+001
1.14035035921962e+004	4.09249632563379e+001  4.61464904568529e+001
1.15932629025779e+004	4.07278632521147e+001  4.54911700631355e+001
1.17861798912630e+004	4.05295681062584e+001  4.48317354656963e+001
1.19823071034060e+004	4.03300646527499e+001  4.41682421696782e+001
1.21816979585358e+004	4.01293400866650e+001  4.35007479592274e+001
1.23844067651057e+004	3.99273819801581e+001  4.28293127910030e+001
1.25904887352855e+004	3.97241782976706e+001  4.21539986811889e+001
1.27999999999999e+004	3.95197174102926e+001  4.14748695862711e+001
1.30129976242166e+004	3.93139881092080e+001  4.07919912778783e+001
1.32295396224898e+004	3.91069796181571e+001  4.01054312120257e+001
